row_id,energy
94993,1596.0697
94994,1448.7671
94995,1397.6028
94996,1352.8555
94997,1328.7329
94998,1336.7301
94999,1379.5651
95000,1471.0919
95001,1567.6521
95002,1670.4545
95003,1744.8135
95004,1835.9067
95005,1921.5287
95006,2004.4976
95007,2054.7397
95008,2101.12
95009,2100.4492
95010,2103.6868
95011,2095.5168
95012,2060.3206
95013,2021.2135
95014,2005.9213
95015,1989.7634
95016,1813.163
95017,1693.3123
95018,1544.9264
95019,1473.6265
95020,1435.8292
95021,1402.8989
95022,1408.1238
95023,1458.7915
95024,1562.9678
95025,1653.9624
95026,1749.6487
95027,1820.2594
95028,1920.09
95029,1990.4548
95030,2088.924
95031,2144.3855
95032,2176.2656
95033,2178.6213
95034,2181.4807
95035,2178.2136
95036,2141.152
95037,2102.0173
95038,2089.9258
95039,2074.0115
95040,1894.2903
95041,1719.0901
95042,1575.1514
95043,1500.6692
95044,1465.2683
95045,1434.2009
95046,1435.1002
95047,1486.5024
95048,1588.6846
95049,1683.9385
95050,1776.678
95051,1844.334
95052,1944.7616
95053,2019.452
95054,2114.0037
95055,2170.102
95056,2201.6367
95057,2205.8745
95058,2212.3242
95059,2205.484
95060,2165.788
95061,2121.5627
95062,2118.1301
95063,2100.944
95064,1919.2733
95065,1716.7733
95066,1578.4233
95067,1501.5546
95068,1466.4185
95069,1435.3511
95070,1438.3722
95071,1489.681
95072,1592.9435
95073,1687.7198
95074,1778.2123
95075,1848.5929
95076,1942.2262
95077,2020.9863
95078,2117.1826
95079,2173.7585
95080,2199.1016
95081,2202.955
95082,2209.0867
95083,2200.3557
95084,2163.2915
95085,2116.4346
95086,2116.4688
95087,2098.5408
95088,1913.6675
95089,1678.2828
95090,1538.0553
95091,1484.008
95092,1444.7228
95093,1414.3992
95094,1414.5575
95095,1450.0874
95096,1549.1895
95097,1642.708
95098,1743.1047
95099,1806.8623
95100,1895.43
95101,1969.5131
95102,2051.362
95103,2100.2488
95104,2127.9634
95105,2131.7117
95106,2133.7656
95107,2113.0818
95108,2072.6462
95109,2030.5309
95110,2033.7832
95111,2011.5465
95112,1842.0735
95113,1636.7181
95114,1488.9366
95115,1407.2184
95116,1361.8527
95117,1325.6893
95118,1327.5505
95119,1347.2115
95120,1366.0927
95121,1404.9125
95122,1515.1635
95123,1614.3242
95124,1737.0033
95125,1807.6722
95126,1891.8899
95127,1940.9644
95128,1966.9084
95129,1973.5398
95130,1979.3037
95131,1974.9803
95132,1935.7003
95133,1894.1875
95134,1890.0468
95135,1867.8187
95136,1740.9142
95137,1692.9331
95138,1547.4216
95139,1460.0587
95140,1402.5586
95141,1367.9268
95142,1355.7075
95143,1362.4673
95144,1373.8542
95145,1414.8688
95146,1520.0398
95147,1619.5435
95148,1742.781
95149,1814.0779
95150,1892.2765
95151,1961.9042
95152,1989.0216
95153,2015.7377
95154,2027.2465
95155,2039.0288
95156,2009.8854
95157,1971.4817
95158,1970.7146
95159,1942.6685
95160,1808.6632
95161,1738.4336
95162,1591.0524
95163,1538.9319
95164,1495.3973
95165,1471.763
95166,1484.3455
95167,1527.1804
95168,1620.3947
95169,1715.5382
95170,1816.8762
95171,1895.5535
95172,1985.9597
95173,2064.9307
95174,2145.0654
95175,2196.3716
95176,2231.3936
95177,2234.765
95178,2236.2234
95179,2223.3823
95180,2186.0105
95181,2148.1375
95182,2141.2048
95183,2118.162
95184,1938.609
95185,1743.209
95186,1593.7388
95187,1524.7262
95188,1486.5336
95189,1453.6567
95190,1460.9397
95191,1513.2333
95192,1623.7789
95193,1712.5537
95194,1807.629
95195,1878.8508
95196,1978.506
95197,2038.7626
95198,2131.7078
95199,2190.5513
95200,2216.0005
95201,2224.3384
95202,2222.4866
95203,2217.7322
95204,2175.697
95205,2143.0664
95206,2137.5398
95207,2111.2644
95208,1931.9875
95209,1751.3082
95210,1605.9572
95211,1530.4397
95212,1498.3173
95213,1465.8751
95214,1468.3978
95215,1521.4259
95216,1628.1665
95217,1723.4462
95218,1817.0317
95219,1885.2988
95220,1983.7113
95221,2048.2935
95222,2135.4585
95223,2194.939
95224,2222.2886
95225,2231.0251
95226,2232.0012
95227,2225.948
95228,2182.6548
95229,2147.2312
95230,2144.85
95231,2118.6792
95232,1940.3922
95233,1726.2654
95234,1586.503
95235,1517.5266
95236,1485.4595
95237,1453.7246
95238,1457.8713
95239,1501.8784
95240,1609.6993
95241,1704.5015
95242,1795.6305
95243,1866.6222
95244,1958.2404
95245,2026.8922
95246,2105.8076
95247,2165.7664
95248,2186.924
95249,2194.779
95250,2195.935
95251,2187.4934
95252,2146.8318
95253,2108.0696
95254,2109.8625
95255,2082.9478
95256,1900.753
95257,1739.3029
95258,1598.5043
95259,1539.4746
95260,1499.2844
95261,1469.7925
95262,1468.4382
95263,1510.5364
95264,1609.1947
95265,1704.8507
95266,1803.7909
95267,1867.5485
95268,1957.2389
95269,2025.4207
95270,2101.8582
95271,2151.0408
95272,2178.7554
95273,2182.577
95274,2184.5576
95275,2163.188
95276,2121.63
95277,2078.6836
95278,2084.0767
95279,2060.5298
95280,1889.6536
95281,1704.3066
95282,1554.8801
95283,1474.8069
95284,1431.7006
95285,1393.432
95286,1392.4792
95287,1413.7539
95288,1433.2653
95289,1473.1486
95290,1584.3821
95291,1685.342
95292,1807.3446
95293,1873.9115
95294,1949.78
95295,2000.2241
95296,2025.0942
95297,2031.6978
95298,2038.5635
95299,2033.4535
95300,1992.5757
95301,1952.5692
95302,1948.7076
95303,1925.1692
95304,1797.6509
95305,1653.1981
95306,1506.0416
95307,1418.2128
95308,1365.083
95309,1328.346
95310,1312.7017
95311,1321.0873
95312,1335.58
95313,1375.1825
95314,1480.725
95315,1582.6389
95316,1704.5889
95317,1772.3948
95318,1848.4481
95319,1920.6505
95320,1944.2185
95321,1974.5922
95322,1982.9062
95323,1996.9934
95324,1963.5424
95325,1930.3304
95326,1928.5721
95327,1897.3994
95328,1765.867
95329,1648.3613
95330,1501.4579
95331,1442.6951
95332,1400.2925
95333,1377.3654
95334,1386.5228
95335,1439.2878
95336,1533.485
95337,1627.1875
95338,1727.1875
95339,1807.172
95340,1898.4425
95341,1973.9215
95342,2054.7234
95343,2106.4287
95344,2140.0781
95345,2146.508
95346,2144.297
95347,2132.0586
95348,2092.5034
95349,2057.4595
95350,2051.327
95351,2026.2068
95352,1847.4138
95353,1651.4941
95354,1503.0728
95355,1452.193
95356,1413.2931
95357,1381.1235
95358,1388.4065
95359,1424.2692
95360,1533.766
95361,1621.4377
95362,1716.9088
95363,1787.0276
95364,1888.8346
95365,1949.0912
95366,2032.1406
95367,2089.8828
95368,2116.4348
95369,2124.1738
95370,2122.9211
95371,2116.4648
95372,2073.98
95373,2041.0912
95374,2036.3259
95375,2011.0999
95376,1830.0685
95377,1656.7505
95378,1512.4482
95379,1455.0636
95380,1422.2339
95381,1390.499
95382,1393.0217
95383,1429.02
95384,1534.7118
95385,1628.8884
95386,1722.8698
95387,1790.0338
95388,1890.5981
95389,1955.1803
95390,2032.4495
95391,2090.829
95392,2119.2812
95393,2128.0173
95394,2128.994
95395,2121.8374
95396,2077.4958
95397,2042.4135
95398,2040.793
95399,2015.6711
95400,1835.6302
95401,1670.8792
95402,1532.1656
95403,1472.3944
95404,1440.3273
95405,1408.5924
95406,1412.7391
95407,1449.2429
95408,1556.015
95409,1649.7141
95410,1741.9462
95411,1811.8348
95412,1905.6049
95413,1974.2567
95414,2053.171
95415,2112.0276
95416,2134.288
95417,2141.5432
95418,2143.2983
95419,2133.1545
95420,2092.0435
95421,2053.7312
95422,2055.5771
95423,2029.7129
95424,1846.4698
95425,1670.6146
95426,1530.8649
95427,1481.0404
95428,1440.8502
95429,1411.3583
95430,1410.004
95431,1444.5989
95432,1542.2084
95433,1636.7614
95434,1736.8046
95435,1799.4591
95436,1891.3014
95437,1959.4832
95438,2035.9196
95439,2083.9993
95440,2112.8174
95441,2116.0398
95442,2118.6194
95443,2095.5479
95444,2053.54
95445,2011.0424
95446,2016.4904
95447,1993.9929
95448,1822.0684
95449,1632.5607
95450,1484.183
95451,1413.315
95452,1370.2086
95453,1331.9401
95454,1330.9873
95455,1344.1598
95456,1362.6223
95457,1401.4026
95458,1513.7391
95459,1613.5961
95460,1737.7505
95461,1804.3174
95462,1880.1859
95463,1929.527
95464,1955.5001
95465,1962.1036
95466,1968.9694
95467,1962.7563
95468,1920.8297
95469,1881.8721
95470,1878.0647
95471,1855.5751
95472,1727.0079
95473,1573.7555
95474,1432.3323
95475,1349.0242
95476,1299.1992
95477,1262.4622
95478,1248.1975
95479,1247.1013
95480,1261.9248
95481,1300.4243
95482,1402.3854
95483,1503.1963
95484,1627.2981
95485,1681.6769
95486,1756.3506
95487,1822.7655
95488,1848.8162
95489,1879.1898
95490,1886.1243
95491,1900.488
95492,1864.6085
95493,1833.8251
95494,1835.4258
95495,1805.3019
95496,1687.5273
95497,1591.1298
95498,1448.9108
95499,1395.7175
95500,1356.6198
95501,1333.6926
95502,1344.2297
95503,1383.4044
95504,1480.3964
95505,1572.6837
95506,1669.4144
95507,1747.9838
95508,1841.2109
95509,1901.3062
95510,1980.7274
95511,2029.162
95512,2063.3184
95513,2069.2068
95514,2066.1575
95515,2056.883
95516,2015.9479
95517,1982.2836
95518,1981.4131
95519,1954.3375
95520,1788.2256
95521,1583.829
95522,1440.092
95523,1386.8986
95524,1351.3035
95525,1319.1339
95526,1327.7965
95527,1361.738
95528,1472.6145
95529,1560.2863
95530,1651.0729
95531,1721.1917
95532,1823.5402
95533,1869.8281
95534,1944.6577
95535,1997.7146
95536,2026.1876
95537,2033.3843
95538,2031.2944
95539,2027.8014
95540,1988.4069
95541,1959.2694
95542,1958.3505
95543,1932.5829
95544,1764.2325
95545,1582.3772
95546,1441.8391
95547,1382.1407
95548,1352.6158
95549,1320.881
95550,1324.7833
95551,1358.8605
95552,1466.8522
95553,1561.0288
95554,1650.3257
95555,1717.4897
95556,1818.5956
95557,1869.2091
95558,1937.3381
95559,1991.032
95560,2021.4054
95561,2029.5994
95562,2029.7386
95563,2019.4915
95564,1979.1606
95565,1947.8289
95566,1950.0553
95567,1929.5258
95568,1763.0862
95569,1582.249
95570,1447.2997
95571,1385.2147
95572,1356.4524
95573,1324.7175
95574,1330.2439
95575,1364.8265
95576,1473.8986
95577,1567.5977
95578,1655.1453
95579,1725.0339
95580,1819.3455
95581,1874.0287
95582,1943.802
95583,1997.9734
95584,2022.1553
95585,2028.8684
95586,2029.7859
95587,2014.426
95588,1977.3253
95589,1942.7634
95590,1948.4568
95591,1927.1849
95592,1759.669
95593,1578.4622
95594,1442.4766
95595,1390.3384
95596,1353.453
95597,1323.961
95598,1323.9865
95599,1356.6602
95600,1456.5696
95601,1551.1226
95602,1646.4813
95603,1709.1359
95604,1801.5197
95605,1855.7328
95606,1923.029
95607,1966.4232
95608,1997.1628
95609,1999.8429
95610,2001.585
95611,1973.2974
95612,1935.2997
95613,1896.5536
95614,1905.8479
95615,1887.9426
95616,1731.7451
95617,1538.4042
95618,1394.7258
95619,1320.6089
95620,1280.8074
95621,1243.474
95622,1243.9009
95623,1255.1522
95624,1274.9795
95625,1314.695
95626,1421.4119
95627,1521.2688
95628,1645.9647
95629,1698.563
95630,1766.2266
95631,1809.948
95632,1838.7775
95633,1844.8395
95634,1849.9319
95635,1840.6288
95636,1803.6475
95637,1767.505
95638,1767.544
95639,1749.6465
95640,1635.6158
95641,1510.3649
95642,1368.9565
95643,1287.084
95644,1237.259
95645,1201.4572
95646,1187.1925
95647,1185.5548
95648,1200.3634
95649,1237.911
95650,1340.824
95651,1441.6349
95652,1566.2782
95653,1618.2284
95654,1686.0768
95655,1753.4436
95656,1780.971
95657,1810.8031
95658,1815.4568
95659,1827.2379
95660,1797.6833
95661,1766.4484
95662,1768.5906
95663,1743.0588
95664,1626.9011
95665,1496.2924
95666,1353.1531
95667,1302.3306
95668,1263.2328
95669,1237.8157
95670,1248.3528
95671,1290.0175
95672,1381.9089
95673,1472.3092
95674,1573.417
95675,1649.4963
95676,1745.2135
95677,1803.4216
95678,1875.0824
95679,1925.4039
95680,1957.0702
95681,1965.4475
95682,1960.5126
95683,1947.0697
95684,1911.5258
95685,1878.3451
95686,1877.4746
95687,1853.0427
95688,1689.7382
95689,1524.6523
95690,1381.5159
95691,1330.5973
95692,1292.7273
95693,1258.0677
95694,1266.7303
95695,1305.4368
95696,1409.692
95697,1493.2018
95698,1588.3655
95699,1655.9943
95700,1763.1077
95701,1807.5085
95702,1880.8179
95703,1935.7618
95704,1961.7449
95705,1971.4315
95706,1969.7295
95707,1962.0696
95708,1922.8412
95709,1891.8167
95710,1893.1726
95711,1867.7738
95712,1700.7101
95713,1498.776
95714,1359.7587
95715,1303.9302
95716,1276.7473
95717,1242.5225
95718,1246.4248
95719,1280.6499
95720,1381.1001
95721,1475.7317
95722,1563.1937
95723,1627.8678
95724,1735.3335
95725,1784.0599
95726,1849.994
95727,1905.575
95728,1933.4584
95729,1944.1423
95730,1946.2644
95731,1937.9043
95732,1895.2244
95733,1862.0055
95734,1868.1018
95735,1841.2124
95736,1675.1392
95737,1555.2717
95738,1473.0167
95739,1411.085
95740,1375.363
95741,1351.1367
95742,1355.3376
95743,1428.6722
95744,1562.2146
95745,1648.4818
95746,1698.166
95747,1732.6609
95748,1786.7219
95749,1813.5863
95750,1889.1742
95751,1939.1627
95752,1961.1797
95753,1961.873
95754,1971.8716
95755,1964.3639
95756,1944.0062
95757,1908.0262
95758,1909.9408
95759,1884.8486
95760,1728.8485
95761,1525.4417
95762,1442.5851
95763,1382.4224
95764,1348.1833
95765,1324.7717
95766,1321.786
95767,1396.2965
95768,1516.1088
95769,1608.71
95770,1661.3904
95771,1691.258
95772,1743.7622
95773,1767.9518
95774,1836.1149
95775,1878.8357
95776,1906.8867
95777,1899.3179
95778,1903.5466
95779,1891.9203
95780,1868.8046
95781,1833.0916
95782,1838.5045
95783,1808.9746
95784,1665.9977
95785,1511.2467
95786,1430.4309
95787,1352.3861
95788,1308.9501
95789,1279.6987
95790,1278.3741
95791,1323.2354
95792,1340.0925
95793,1376.2179
95794,1438.7235
95795,1503.4628
95796,1592.4495
95797,1613.225
95798,1685.9963
95799,1728.9056
95800,1749.7877
95801,1747.9965
95802,1758.4387
95803,1759.5922
95804,1736.7125
95805,1695.9589
95806,1700.3668
95807,1668.5363
95808,1581.3323
95809,1455.9337
95810,1376.9532
95811,1293.6985
95812,1238.128
95813,1209.9735
95814,1202.3138
95815,1247.705
95816,1258.4789
95817,1293.5721
95818,1351.4325
95819,1417.8959
95820,1502.6041
95821,1527.4633
95822,1601.0305
95823,1664.0225
95824,1684.2323
95825,1691.4359
95826,1711.8369
95827,1714.2719
95828,1701.9635
95829,1665.2952
95830,1671.1953
95831,1645.0981
95832,1552.2043
95833,1464.1954
95834,1366.96
95835,1315.2014
95836,1268.1229
95837,1251.2052
95838,1268.581
95839,1359.5924
95840,1489.6455
95841,1579.3099
95842,1634.0485
95843,1679.8618
95844,1729.0358
95845,1756.7499
95846,1832.24
95847,1879.5605
95848,1905.756
95849,1899.3927
95850,1904.4725
95851,1896.5543
95852,1878.56
95853,1844.9661
95854,1844.0964
95855,1814.7417
95856,1654.8284
95857,1528.075
95858,1438.4407
95859,1383.1609
95860,1345.7703
95861,1319.6101
95862,1330.0767
95863,1406.6333
95864,1540.2166
95865,1626.5005
95866,1674.5576
95867,1712.3044
95868,1770.2157
95869,1784.5066
95870,1864.8955
95871,1915.6034
95872,1934.7004
95873,1931.799
95874,1938.3346
95875,1933.0513
95876,1913.6266
95877,1882.1887
95878,1882.6858
95879,1853.2239
95880,1693.7224
95881,1540.6412
95882,1455.1261
95883,1394.6888
95884,1361.0741
95885,1336.2955
95886,1342.0018
95887,1419.293
95888,1550.4186
95889,1640.4788
95890,1687.4467
95891,1723.62
95892,1778.9073
95893,1797.5238
95894,1873.0793
95895,1924.4242
95896,1944.0742
95897,1942.9186
95898,1952.2822
95899,1945.6998
95900,1925.1947
95901,1893.42
95902,1899.3568
95903,1868.6519
95904,1709.194
95905,1539.9954
95906,1457.6617
95907,1394.8379
95908,1364.7421
95909,1338.225
95910,1344.5375
95911,1420.3458
95912,1553.9412
95913,1643.5238
95914,1692.8882
95915,1729.3789
95916,1780.2792
95917,1802.9653
95918,1874.63
95919,1926.4524
95920,1943.7075
95921,1941.6699
95922,1947.4163
95923,1942.2424
95924,1919.0472
95925,1890.1765
95926,1896.4523
95927,1862.5978
95928,1705.4729
95929,1517.6948
95930,1433.7539
95931,1377.9895
95932,1342.658
95933,1318.3838
95934,1317.5695
95935,1393.0947
95936,1516.8009
95937,1609.6577
95938,1663.7521
95939,1693.6198
95940,1746.5596
95941,1760.0298
95942,1829.1774
95943,1870.3124
95944,1894.4081
95945,1889.2367
95946,1892.9498
95947,1880.6088
95948,1854.6304
95949,1823.2511
95950,1831.8204
95951,1797.5085
95952,1652.8068
95953,1488.7604
95954,1405.0236
95955,1329.5631
95956,1289.6299
95957,1255.6576
95958,1256.5044
95959,1302.3804
95960,1322.3945
95961,1359.5125
95962,1427.3192
95963,1492.0585
95964,1579.6411
95965,1589.6973
95966,1659.5947
95967,1701.9922
95968,1719.6559
95969,1719.2139
95970,1729.4518
95971,1731.7302
95972,1708.2495
95973,1675.688
95974,1676.8173
95975,1642.0156
95976,1555.8743
95977,1457.0657
95978,1375.5989
95979,1292.3828
95980,1245.3213
95981,1211.7845
95982,1203.4513
95983,1250.4683
95984,1263.7881
95985,1300.9197
95986,1364.1313
95987,1433.005
95988,1513.8989
95989,1530.449
95990,1599.4353
95991,1661.9154
95992,1679.9526
95993,1688.0708
95994,1707.6564
95995,1712.2621
95996,1696.807
95997,1669.8615
95998,1671.998
95999,1641.884
96000,1551.1488
96001,1468.1428
96002,1370.3363
96003,1320.8479
96004,1277.5269
96005,1256.8785
96006,1270.3315
96007,1362.9688
96008,1494.2772
96009,1584.38
96010,1643.9233
96011,1692.147
96012,1740.0333
96013,1764.2565
96014,1833.6658
96015,1881.7107
96016,1908.5172
96017,1899.917
96018,1904.3125
96019,1900.5115
96020,1882.3081
96021,1852.4447
96022,1847.8845
96023,1818.4897
96024,1659.4258
96025,1509.3911
96026,1419.1858
96027,1362.3661
96028,1326.5997
96029,1300.3552
96030,1309.1959
96031,1387.9773
96032,1520.5057
96033,1609.5382
96034,1655.9459
96035,1694.3038
96036,1752.7267
96037,1761.7274
96038,1841.992
96039,1891.114
96040,1910.8221
96041,1907.8928
96042,1913.8452
96043,1910.2678
96044,1888.2084
96045,1856.256
96046,1856.7087
96047,1827.2068
96048,1667.2186
96049,1489.1508
96050,1400.5544
96051,1339.4618
96052,1305.1593
96053,1279.3495
96054,1285.7128
96055,1364.6298
96056,1498.2783
96057,1587.6008
96058,1634.8423
96059,1674.1368
96060,1710.9135
96061,1721.7296
96062,1795.3735
96063,1848.483
96064,1858.5498
96065,1856.9891
96066,1870.1467
96067,1864.2435
96068,1845.1302
96069,1820.183
96070,1822.6184
96071,1786.8973
96072,1645.9459
96073,1474.803
96074,1390.437
96075,1325.9089
96076,1293.3868
96077,1267.577
96078,1274.5465
96079,1354.7314
96080,1489.8009
96081,1577.5428
96082,1626.5453
96083,1665.0542
96084,1699.5956
96085,1714.4814
96086,1785.973
96087,1838.457
96088,1847.2319
96089,1844.1904
96090,1854.3296
96091,1848.133
96092,1825.8798
96093,1802.5479
96094,1807.115
96095,1769.2932
96096,1627.8875
96097,1478.5312
96098,1393.129
96099,1337.2003
96100,1297.9026
96101,1274.3357
96102,1275.8042
96103,1354.0802
96104,1480.3153
96105,1568.5829
96106,1624.0491
96107,1655.3239
96108,1691.3932
96109,1702.3533
96110,1771.3678
96111,1814.7502
96112,1829.7546
96113,1823.0083
96114,1832.2964
96115,1816.6278
96116,1794.825
96117,1768.9845
96118,1775.8052
96119,1737.566
96120,1609.1544
96121,1445.4408
96122,1363.3256
96123,1284.6179
96124,1245.6006
96125,1212.3356
96126,1210.5831
96127,1259.2098
96128,1281.7529
96129,1317.3645
96130,1386.5431
96131,1451.4058
96132,1520.3187
96133,1532.7468
96134,1599.4283
96135,1644.0732
96136,1655.7285
96137,1653.7115
96138,1669.5244
96139,1668.4753
96140,1646.0873
96141,1619.0646
96142,1621.5281
96143,1582.7992
96144,1512.948
96145,1415.4075
96146,1338.9413
96147,1251.9402
96148,1205.2405
96149,1171.7037
96150,1165.6533
96151,1211.981
96152,1230.6709
96153,1265.6693
96154,1328.504
96155,1398.7848
96156,1458.8024
96157,1474.007
96158,1542.153
96159,1606.8805
96160,1612.2057
96161,1619.3478
96162,1643.9094
96163,1648.2426
96164,1633.9081
96165,1613.8075
96166,1619.9501
96167,1582.2881
96168,1505.7091
96169,1434.6068
96170,1344.8838
96171,1287.5514
96172,1248.6511
96173,1233.4741
96174,1240.6558
96175,1338.6738
96176,1474.3763
96177,1566.4049
96178,1624.5952
96179,1671.1431
96180,1698.1531
96181,1724.1136
96182,1785.1045
96183,1834.4208
96184,1851.5981
96185,1842.399
96186,1852.3695
96187,1846.721
96188,1827.1542
96189,1803.5369
96190,1811.5369
96191,1774.5941
96192,1630.6625
96193,1487.3069
96194,1401.0363
96195,1337.3486
96196,1309.1758
96197,1288.4026
96198,1290.9719
96199,1374.5353
96200,1512.4338
96201,1602.416
96202,1648.4468
96203,1685.1289
96204,1722.6754
96205,1733.4136
96206,1800.1348
96207,1851.5043
96208,1861.5833
96209,1857.6779
96210,1868.6063
96211,1864.7563
96212,1840.7346
96213,1819.776
96214,1832.789
96215,1795.739
96216,1649.9071
96217,1483.6821
96218,1398.4478
96219,1332.6855
96220,1306.1526
96221,1285.8141
96222,1286.706
96223,1370.405
96224,1505.846
96225,1596.5215
96226,1642.4099
96227,1680.6014
96228,1715.524
96229,1727.5049
96230,1791.5287
96231,1843.5352
96232,1851.0842
96233,1849.5236
96234,1862.6812
96235,1858.131
96236,1835.5128
96237,1815.7632
96238,1830.186
96239,1791.8931
96240,1647.0516
96241,1459.788
96242,1374.2682
96243,1309.5863
96244,1281.3668
96245,1261.0283
96246,1262.5265
96247,1343.1661
96248,1481.0768
96249,1571.2748
96250,1617.8212
96251,1656.3301
96252,1692.5079
