row_id,energy
94993,1799.7612
94994,1681.078
94995,1609.3387
94996,1549.3757
94997,1524.223
94998,1522.1085
94999,1595.3732
95000,1707.9105
95001,1779.7872
95002,1857.5217
95003,1950.2379
95004,2045.8616
95005,2126.0498
95006,2217.7346
95007,2270.1123
95008,2293.0022
95009,2305.3162
95010,2319.1177
95011,2313.7842
95012,2294.8252
95013,2217.6318
95014,2201.3472
95015,2163.413
95016,1997.0475
95017,1863.0563
95018,1756.9115
95019,1679.9995
95020,1621.412
95021,1589.5239
95022,1582.9847
95023,1651.318
95024,1764.8708
95025,1841.5503
95026,1914.0587
95027,2008.1898
95028,2097.3582
95029,2184.2866
95030,2277.528
95031,2330.592
95032,2356.6228
95033,2371.5889
95034,2381.915
95035,2381.932
95036,2355.332
95037,2281.7507
95038,2257.2761
95039,2226.7058
95040,2064.4824
95041,1891.3796
95042,1784.999
95043,1706.6885
95044,1649.4806
95045,1619.5807
95046,1609.8523
95047,1675.4685
95048,1790.8607
95049,1860.4353
95050,1938.816
95051,2028.7792
95052,2120.1133
95053,2204.8755
95054,2293.7515
95055,2346.3708
95056,2373.2603
95057,2392.425
95058,2399.726
95059,2401.2407
95060,2377.5747
95061,2305.3445
95062,2282.5347
95063,2250.8235
95064,2084.139
95065,1926.8948
95066,1820.775
95067,1743.838
95068,1685.8436
95069,1655.0531
95070,1647.6802
95071,1715.8728
95072,1832.857
95073,1900.4806
95074,1979.2205
95075,2070.949
95076,2161.2258
95077,2247.9312
95078,2335.4873
95079,2385.7083
95080,2408.8584
95081,2427.5078
95082,2432.4395
95083,2434.5334
95084,2407.164
95085,2332.1658
95086,2311.1787
95087,2282.6746
95088,2116.4607
95089,1897.8152
95090,1788.8799
95091,1714.5126
95092,1652.8529
95093,1620.6177
95094,1615.2882
95095,1668.5608
95096,1776.2712
95097,1840.3673
95098,1924.0697
95099,2015.8704
95100,2106.2603
95101,2174.1243
95102,2260.7131
95103,2304.5225
95104,2328.8022
95105,2342.7847
95106,2342.5388
95107,2337.234
95108,2300.4192
95109,2217.7092
95110,2203.0647
95111,2179.7344
95112,2027.098
95113,1789.5867
95114,1704.0404
95115,1589.2711
95116,1529.5366
95117,1490.7559
95118,1480.3903
95119,1515.4164
95120,1518.537
95121,1579.5682
95122,1674.6105
95123,1751.9254
95124,1879.8834
95125,1948.2352
95126,2019.518
95127,2061.4282
95128,2088.299
95129,2102.092
95130,2116.1262
95131,2113.6868
95132,2087.1526
95133,2018.9318
95134,1998.1123
95135,1973.617
95136,1833.0903
95137,1751.9479
95138,1657.3197
95139,1552.058
95140,1496.8615
95141,1458.5613
95142,1448.5271
95143,1455.6316
95144,1435.3878
95145,1494.0302
95146,1588.4576
95147,1676.8416
95148,1805.9171
95149,1882.9617
95150,1990.1777
95151,2038.5365
95152,2073.14
95153,2093.692
95154,2122.3062
95155,2140.0608
95156,2132.0305
95157,2068.5354
95158,2050.1284
95159,2017.5717
95160,1874.5087
95161,1847.2019
95162,1732.8882
95163,1660.7388
95164,1603.2723
95165,1587.0674
95166,1582.3685
95167,1660.289
95168,1768.9683
95169,1843.5328
95170,1922.2358
95171,2014.8063
95172,2110.4197
95173,2194.8962
95174,2286.2007
95175,2334.6868
95176,2365.2249
95177,2374.9368
95178,2384.63
95179,2380.6284
95180,2363.271
95181,2286.9556
95182,2269.865
95183,2238.3257
95184,2065.2986
95185,1819.4728
95186,1714.9277
95187,1636.6349
95188,1579.1813
95189,1550.0425
95190,1546.3114
95191,1616.2412
95192,1731.121
95193,1808.0734
95194,1880.1885
95195,1973.2004
95196,2060.276
95197,2156.4001
95198,2237.8472
95199,2297.6572
95200,2321.5425
95201,2333.0496
95202,2341.776
95203,2343.8708
95204,2316.5244
95205,2243.3364
95206,2227.848
95207,2183.441
95208,2017.4181
95209,1843.5214
95210,1738.7405
95211,1659.0488
95212,1602.975
95213,1575.8243
95214,1564.0217
95215,1631.2345
95216,1746.7472
95217,1816.5947
95218,1894.5819
95219,1983.4252
95220,2072.667
95221,2166.625
95222,2247.3862
95223,2306.7517
95224,2331.4956
95225,2348.408
95226,2354.1091
95227,2358.9045
95228,2329.6096
95229,2258.9753
95230,2245.1516
95231,2199.6038
95232,2032.7991
95233,1838.6685
95234,1733.7158
95235,1655.3978
95236,1598.5767
95237,1570.5354
95238,1561.4816
95239,1630.5266
95240,1747.5493
95241,1815.8787
95242,1894.3068
95243,1985.2286
95244,2072.7063
95245,2144.8728
95246,2224.6257
95247,2280.8484
95248,2301.4597
95249,2318.6829
95250,2321.5818
95251,2327.268
95252,2294.2698
95253,2220.907
95254,2208.5945
95255,2165.1743
95256,1998.9222
95257,1827.8378
95258,1720.0693
95259,1643.843
95260,1584.5714
95261,1555.0854
95262,1550.3058
95263,1602.188
95264,1711.6932
95265,1776.4949
95266,1861.1006
95267,1951.5424
95268,2039.136
95269,2107.3848
95270,2187.8635
95271,2237.1963
95272,2259.4155
95273,2270.1
95274,2269.0364
95275,2265.093
95276,2224.3303
95277,2140.8384
95278,2134.8684
95279,2096.1438
95280,1943.4669
95281,1727.0513
95282,1642.6721
95283,1527.903
95284,1468.6011
95285,1433.3103
95286,1423.4945
95287,1457.2267
95288,1461.4012
95289,1523.8788
95290,1618.6095
95291,1695.6864
95292,1820.1046
95293,1890.056
95294,1974.3848
95295,2021.8223
95296,2044.7721
95297,2058.341
95298,2070.3428
95299,2069.2644
95300,2038.7844
95301,1970.9921
95302,1957.7295
95303,1918.2201
95304,1778.3951
95305,1657.3643
95306,1562.3032
95307,1455.9233
95308,1401.1593
95309,1362.8591
95310,1352.172
95311,1359.101
95312,1338.7048
95313,1398.7935
95314,1492.9094
95315,1579.9366
95316,1707.687
95317,1776.7422
95318,1868.9674
95319,1928.747
95320,1954.6547
95321,1975.0701
95322,2003.2513
95323,2021.9697
95324,2014.6874
95325,1952.8265
95326,1943.0922
95327,1892.8013
95328,1750.4404
95329,1734.6693
95330,1619.923
95331,1547.7737
95332,1490.7397
95333,1474.5348
95334,1470.3857
95335,1547.0122
95336,1655.5392
95337,1731.55
95338,1809.9418
95339,1902.2725
95340,1996.5634
95341,2073.0496
95342,2149.363
95343,2209.2698
95344,2229.991
95345,2240.6855
95346,2249.9458
95347,2245.706
95348,2230.2979
95349,2154.4153
95350,2144.8809
95351,2096.725
95352,1924.3998
95353,1768.411
95354,1663.4333
95355,1585.1404
95356,1528.1195
95357,1498.9807
95358,1495.7994
95359,1564.4353
95360,1680.1764
95361,1757.5614
95362,1829.365
95363,1922.1382
95364,2008.9037
95365,2080.899
95366,2158.36
95367,2221.7231
95368,2241.311
95369,2253.8008
95370,2262.0942
95371,2263.951
95372,2240.9019
95373,2168.1467
95374,2152.3467
95375,2106.8604
95376,1940.5261
95377,1796.6715
95378,1691.458
95379,1611.7665
95380,1556.1251
95381,1528.9745
95382,1517.7217
95383,1583.6405
95384,1698.6498
95385,1768.9299
95386,1846.6056
95387,1936.5751
95388,2025.5063
95389,2095.336
95390,2172.1113
95391,2235.0298
95392,2255.4763
95393,2273.3713
95394,2278.6396
95395,2283.1968
95396,2258.1992
95397,2187.9978
95398,2173.8625
95399,2127.2354
95400,1960.119
95401,1818.3561
95402,1713.4034
95403,1635.0856
95404,1578.2644
95405,1550.2231
95406,1541.7191
95407,1610.2144
95408,1726.4222
95409,1793.6969
95410,1873.1794
95411,1964.9163
95412,2052.3953
95413,2124.5615
95414,2200.017
95415,2259.4824
95416,2275.7964
95417,2294.624
95418,2297.523
95419,2302.6594
95420,2272.9038
95421,2199.541
95422,2188.2832
95423,2144.863
95424,1977.5554
95425,1817.0206
95426,1710.2214
95427,1633.9951
95428,1573.7543
95429,1544.2683
95430,1540.4579
95431,1591.3708
95432,1699.5114
95433,1766.7017
95434,1848.9187
95435,1940.7252
95436,2028.3206
95437,2097.5376
95438,2173.719
95439,2227.799
95440,2246.6904
95441,2254.986
95442,2253.9224
95443,2249.979
95444,2214.933
95445,2132.4106
95446,2124.0518
95447,2085.3271
95448,1935.0385
95449,1719.0446
95450,1635.6346
95451,1520.8655
95452,1460.5944
95453,1425.3036
95454,1416.457
95455,1449.22
95456,1452.0298
95457,1516.896
95458,1609.238
95459,1687.6797
95460,1812.0979
95461,1883.0186
95462,1963.0499
95463,2015.2357
95464,2034.8596
95465,2046.0382
95466,2058.039
95467,2056.9612
95468,2032.1979
95469,1965.3738
95470,1949.7228
95471,1910.2134
95472,1772.7769
95473,1646.4397
95474,1552.7612
95475,1444.7687
95476,1390.6481
95477,1355.6141
95478,1349.5928
95479,1351.8312
95480,1333.7499
95481,1395.0687
95482,1487.9962
95483,1572.6251
95484,1700.4172
95485,1771.4945
95486,1856.9115
95487,1914.4525
95488,1939.0967
95489,1961.0115
95490,1988.7377
95491,2008.9856
95492,2000.4342
95493,1942.1892
95494,1929.6537
95495,1877.0883
95496,1735.9159
95497,1705.7979
95498,1591.6589
95499,1517.897
95500,1461.5065
95501,1448.5677
95502,1449.8596
95503,1521.0204
95504,1631.8622
95505,1707.4045
95506,1787.0817
95507,1877.014
95508,1970.5703
95509,2049.081
95510,2119.3613
95511,2174.5557
95512,2193.2383
95513,2208.6812
95514,2217.4863
95515,2214.0012
95516,2195.6255
95517,2123.3584
95518,2113.4963
95519,2063.0662
95520,1888.6793
95521,1816.6696
95522,1711.7554
95523,1632.853
95524,1575.013
95525,1549.1404
95526,1552.8625
95527,1616.0327
95528,1733.0852
95529,1811.0051
95530,1884.0941
95531,1973.4658
95532,2060.042
95533,2134.0608
95534,2204.4856
95535,2263.5955
95536,2280.6855
95537,2297.9236
95538,2305.762
95539,2309.3765
95540,2283.819
95541,2213.217
95542,2198.5518
95543,2149.3286
95544,1980.9323
95545,1826.459
95546,1721.309
95547,1641.0079
95548,1584.5475
95549,1560.6631
95550,1556.3137
95551,1616.7668
95552,1734.4523
95553,1805.2673
95554,1884.2284
95555,1969.4314
95556,2058.1738
95557,2130.0264
95558,2199.7654
95559,2258.4307
95560,2276.3794
95561,2299.0227
95562,2303.836
95563,2303.8933
95564,2276.3875
95565,2208.339
95566,2195.3386
95567,2151.2322
95568,1982.0541
95569,1839.9546
95570,1735.7584
95571,1656.831
95572,1599.1908
95573,1574.4158
95574,1572.1222
95575,1635.1517
95576,1754.7288
95577,1824.793
95578,1902.6133
95579,1989.5844
95580,2076.8738
95581,2141.2485
95582,2208.9746
95583,2266.4414
95584,2280.2576
95585,2301.5789
95586,2304.0227
95587,2305.3525
95588,2274.6501
95589,2204.1335
95590,2191.7559
95591,2150.8564
95592,1983.0491
95593,1840.7493
95594,1733.7373
95595,1656.9016
95596,1596.8109
95597,1570.5912
95598,1572.022
95599,1618.4385
95600,1729.9482
95601,1798.9586
95602,1880.4829
95603,1967.5234
95604,2054.9287
95605,2115.3855
95606,2183.8374
95607,2236.8884
95608,2252.3125
95609,2264.0713
95610,2262.5525
95611,2254.8025
95612,2218.8098
95613,2138.164
95614,2129.6548
95615,2093.451
95616,1941.6932
95617,1757.0419
95618,1672.5786
95619,1558.0405
95620,1497.0791
95621,1465.0546
95622,1462.2897
95623,1490.5562
95624,1496.7354
95625,1563.4216
95626,1655.0707
95627,1727.9055
95628,1852.9749
95629,1914.2938
95630,1987.4363
95631,2038.5911
95632,2054.7483
95633,2069.3916
95634,2080.9382
95635,2075.2122
95636,2050.3408
95637,1984.5544
95638,1969.5936
95639,1932.6047
95640,1793.7003
95641,1712.9193
95642,1618.7773
95643,1509.27
95644,1453.0519
95645,1418.8158
95646,1413.3784
95647,1415.6395
95648,1398.2513
95649,1459.8043
95650,1551.2407
95651,1636.3682
95652,1763.2255
95653,1823.6481
95654,1907.4989
95655,1967.8544
95656,1991.2642
95657,2013.9541
95658,2042.4783
95659,2051.595
95660,2043.8843
95661,1985.5735
95662,1978.1654
95663,1927.8275
95664,1785.1873
95665,1782.4036
95666,1668.5765
95667,1593.2998
95668,1534.8118
95669,1522.6709
95670,1523.7716
95671,1595.7302
95672,1707.2651
95673,1782.2662
95674,1860.4528
95675,1950.8832
95676,2044.28
95677,2112.1365
95678,2180.0754
95679,2238.0842
95680,2256.3076
95681,2271.7505
95682,2281.3535
95683,2267.5125
95684,2249.2024
95685,2176.8696
95686,2172.135
95687,2123.9324
95688,1948.8519
95689,1904.7627
95690,1799.7009
95691,1719.2839
95692,1659.8057
95693,1634.731
95694,1637.8027
95695,1701.7708
95696,1819.5164
95697,1896.895
95698,1968.4934
95699,2058.3643
95700,2145.2393
95701,2208.6033
95702,2276.6868
95703,2338.1519
95704,2355.242
95705,2372.48
95706,2381.1162
95707,2374.3748
95708,2348.4238
95709,2278.2153
95710,2268.2183
95711,2221.682
95712,2052.5928
95713,1933.8595
95714,1830.4408
95715,1747.0289
95716,1690.5265
95717,1667.3444
95718,1656.2336
95719,1718.5411
95720,1836.1459
95721,1906.8972
95722,1984.1864
95723,2069.5928
95724,2158.648
95725,2220.8496
95726,2287.23
95727,2348.7278
95728,2368.1904
95729,2392.1338
95730,2396.1487
95731,2391.7126
95732,2362.7078
95733,2294.8584
95734,2287.5435
95735,2239.8662
95736,2072.2556
95737,1880.5416
95738,1801.3378
95739,1714.701
95740,1668.2039
95741,1646.1846
95742,1648.8553
95743,1735.9044
95744,1912.9648
95745,1964.9352
95746,1998.9027
95747,2036.8795
95748,2095.522
95749,2143.6323
95750,2198.8347
95751,2245.9092
95752,2261.985
95753,2296.998
95754,2281.9294
95755,2298.1768
95756,2249.5137
95757,2203.5417
95758,2200.8066
95759,2161.9568
95760,2041.4935
95761,1851.7731
95762,1768.2329
95763,1688.9642
95764,1634.8716
95765,1613.308
95766,1621.1715
95767,1693.3842
95768,1850.4736
95769,1902.8467
95770,1940.6105
95771,1982.5881
95772,2036.8718
95773,2079.8323
95774,2134.303
95775,2176.5476
95776,2193.376
95777,2221.0994
95778,2208.0166
95779,2212.7017
95780,2156.4844
95781,2100.2512
95782,2102.4622
95783,2067.644
95784,1975.1199
95785,1737.4899
95786,1677.3334
95787,1542.7802
95788,1485.866
95789,1464.015
95790,1470.7189
95791,1523.5844
95792,1557.0803
95793,1606.1403
95794,1650.2083
95795,1716.606
95796,1818.8073
95797,1859.2732
95798,1913.3794
95799,1949.799
95800,1968.4791
95801,2001.824
95802,1997.6161
95803,2004.3475
95804,1965.8636
95805,1922.6849
95806,1919.1985
95807,1883.535
95808,1798.8337
95809,1488.627
95810,1431.5817
95811,1326.9236
95812,1284.3488
95813,1265.0641
95814,1271.0834
95815,1280.0137
95816,1305.6206
95817,1344.8151
95818,1384.9707
95819,1466.912
95820,1563.9429
95821,1582.6786
95822,1637.3976
95823,1663.4902
95824,1679.4011
95825,1707.0637
95826,1717.7291
95827,1738.7582
95828,1741.9536
95829,1731.232
95830,1738.6978
95831,1685.0594
95832,1585.6565
95833,1521.2642
95834,1438.8672
95835,1388.9756
95836,1341.9724
95837,1341.5133
95838,1354.5186
95839,1435.602
95840,1600.7231
95841,1656.0762
95842,1682.828
95843,1733.4113
95844,1788.4993
95845,1814.9174
95846,1858.8077
95847,1882.7876
95848,1894.1536
95849,1916.1859
95850,1914.42
95851,1913.5151
95852,1904.1565
95853,1884.647
95854,1890.3971
95855,1838.043
95856,1709.5739
95857,1602.7239
95858,1529.7661
95859,1475.1788
95860,1429.8812
95861,1413.103
95862,1428.3676
95863,1503.5254
95864,1679.5005
95865,1738.3385
95866,1758.3014
95867,1807.7303
95868,1858.6611
95869,1880.601
95870,1922.1342
95871,1952.8234
95872,1961.9373
95873,1984.0267
95874,1981.0234
95875,1985.3273
95876,1966.7733
95877,1948.251
95878,1951.931
95879,1900.7592
95880,1774.567
95881,1631.8302
95882,1558.0138
95883,1504.3326
95884,1458.1099
95885,1445.0894
95886,1452.8737
95887,1524.1564
95888,1703.6527
95889,1757.1556
95890,1779.015
95891,1826.5804
95892,1880.7253
95893,1893.0164
95894,1933.3397
95895,1963.5731
95896,1973.5457
95897,1998.1631
95898,1993.8165
95899,1999.0834
95900,1980.2196
95901,1962.5132
95902,1966.81
95903,1916.0804
95904,1787.4244
95905,1636.4606
95906,1563.5278
95907,1508.9155
95908,1462.2065
95909,1449.2838
95910,1456.2538
95911,1530.1837
95912,1709.1968
95913,1761.7369
95914,1785.0424
95915,1833.6815
95916,1885.3857
95917,1901.0011
95918,1940.0049
95919,1969.5216
95920,1979.111
95921,2001.9954
95922,1995.2089
95923,2005.2406
95924,1980.4117
95925,1962.4287
95926,1967.9258
95927,1919.3439
95928,1790.3209
95929,1623.3132
95930,1548.105
95931,1495.0592
95932,1446.6527
95933,1431.5632
95934,1445.4905
95935,1503.9258
95936,1666.7968
95937,1715.0565
95938,1748.0562
95939,1794.8944
95940,1844.3003
95941,1854.1118
95942,1896.804
95943,1919.4308
95944,1930.3295
95945,1945.0067
95946,1936.7373
95947,1936.627
95948,1904.304
95949,1873.6412
95950,1888.4066
95951,1843.6957
95952,1736.7861
95953,1538.9318
95954,1487.1067
95955,1379.8951
95956,1328.667
95957,1313.2902
95958,1322.3782
95959,1360.3479
95960,1399.6252
95961,1444.5721
95962,1483.8757
95963,1556.2527
95964,1653.5759
95965,1660.8926
95966,1706.8981
95967,1723.7023
95968,1731.584
95969,1753.0021
95970,1753.607
95971,1755.5416
95972,1737.273
95973,1719.6643
95974,1727.6134
95975,1683.1776
95976,1587.7701
95977,1507.4434
95978,1450.6195
95979,1344.9761
95980,1303.1788
95981,1283.5492
95982,1289.247
95983,1297.9818
95984,1324.9481
95985,1363.2158
95986,1404.7308
95987,1484.1943
95988,1581.2252
95989,1592.6934
95990,1648.0774
95991,1674.2156
95992,1689.4073
95993,1717.7435
95994,1726.617
95995,1750.6863
95996,1751.0576
95997,1742.6254
95998,1752.3528
95999,1696.9875
96000,1595.736
96001,1542.4976
96002,1460.3218
96003,1409.0709
96004,1365.0746
96005,1363.2561
96006,1377.6207
96007,1455.6974
96008,1623.3843
96009,1677.8105
96010,1707.1366
96011,1756.3605
96012,1811.4485
96013,1830.3986
96014,1876.647
96015,1900.1942
96016,1910.2008
96017,1931.6039
96018,1929.2609
96019,1929.7153
96020,1919.2136
96021,1899.5757
96022,1906.4691
96023,1853.0283
96024,1722.7108
96025,1583.0475
96026,1508.7142
96027,1454.3217
96028,1417.5741
96029,1395.9838
96030,1414.0493
96031,1490.5447
96032,1671.7579
96033,1729.6694
96034,1742.4481
96035,1790.475
96036,1838.9153
96037,1860.1792
96038,1898.172
96039,1925.3901
96040,1934.2631
96041,1953.1333
96042,1945.0327
96043,1949.6204
96044,1934.0856
96045,1926.201
96046,1929.056
96047,1874.2643
96048,1741.695
96049,1586.3016
96050,1511.11
96051,1457.6234
96052,1419.9507
96053,1402.118
96054,1411.5006
96055,1484.1208
96056,1667.649
96057,1720.2252
96058,1734.9004
96059,1781.0637
96060,1832.7181
96061,1851.2919
96062,1883.7775
96063,1914.8372
96064,1920.2714
96065,1942.876
96066,1933.4321
96067,1940.1854
96068,1927.4355
96069,1921.5698
96070,1925.0415
96071,1870.6919
96072,1735.6589
96073,1581.0376
96074,1506.7296
96075,1452.3119
96076,1414.153
96077,1396.4181
96078,1406.1891
96079,1481.4565
96080,1664.5013
96081,1716.115
96082,1732.2362
96083,1779.4733
96084,1828.6868
96085,1850.585
96086,1881.751
96087,1912.094
96088,1917.145
96089,1938.0166
96090,1926.1328
96091,1936.4482
96092,1918.9362
96093,1911.591
96094,1916.2628
96095,1864.0609
96096,1728.661
96097,1576.9238
96098,1500.3401
96099,1448.6075
96100,1408.7511
96101,1388.8495
96102,1405.5778
96103,1464.2322
96104,1631.1349
96105,1678.4681
96106,1704.2836
96107,1750.8381
96108,1797.7533
96109,1813.8477
96110,1847.5588
96111,1871.012
96112,1876.2539
96113,1890.0367
96114,1876.67
96115,1876.8433
96116,1852.9803
96117,1832.9554
96118,1844.634
96119,1796.4633
96120,1684.3201
96121,1499.1168
96122,1445.9165
96123,1340.0181
96124,1297.34
96125,1277.151
96126,1289.04
96127,1327.2289
96128,1369.1733
96129,1413.1935
96130,1445.3131
96131,1518.7709
96132,1613.6036
96133,1627.203
96134,1664.2275
96135,1681.858
96136,1684.083
96137,1704.6067
96138,1700.1144
96139,1702.3326
96140,1692.5238
96141,1685.5532
96142,1690.4154
96143,1642.5199
96144,1541.8788
96145,1463.6753
96146,1405.2548
96147,1302.2838
96148,1267.2446
96149,1244.1622
96150,1251.3016
96151,1262.0476
96152,1297.3739
96153,1335.8608
96154,1368.613
96155,1450.517
96156,1545.0574
96157,1551.765
96158,1597.5394
96159,1625.7844
96160,1636.0502
96161,1661.4807
96162,1667.0488
96163,1690.6711
96164,1699.0929
96165,1700.8407
96166,1713.6855
96167,1650.4818
96168,1544.9211
96169,1533.9001
96170,1452.574
96171,1403.9956
96172,1365.69
96173,1359.0398
96174,1378.6713
96175,1456.3127
96176,1635.8895
96177,1686.9775
96178,1712.4772
96179,1759.2329
96180,1810.4513
96181,1828.4661
96182,1870.0137
96183,1889.3687
96184,1896.8955
96185,1916.7994
96186,1909.7722
96187,1909.7797
96188,1904.8545
96189,1894.313
96190,1902.9725
96191,1841.6932
96192,1707.0388
96193,1592.4407
96194,1520.5537
96195,1466.1611
96196,1428.3462
96197,1405.377
96198,1427.2677
96199,1501.3168
96200,1691.7474
96201,1746.3207
96202,1763.8165
96203,1808.2993
96204,1855.3607
96205,1870.1119
96206,1908.0875
96207,1934.1519
96208,1940.545
96209,1960.6025
96210,1951.123
96211,1956.3394
96212,1942.2186
96213,1933.8792
96214,1941.5872
96215,1880.3718
96216,1747.9941
96217,1610.1799
96218,1537.4343
96219,1483.9479
96220,1445.2078
96221,1425.9962
96222,1439.204
96223,1509.3779
96224,1702.1237
96225,1751.3613
96226,1770.7539
96227,1813.3732
96228,1863.6487
96229,1875.7096
96230,1912.4753
96231,1938.0839
96232,1945.3357
96233,1969.1276
96234,1958.3048
96235,1965.6866
96236,1950.0535
96237,1943.7328
96238,1952.0576
96239,1891.2845
96240,1756.443
96241,1597.5603
96242,1525.6984
96243,1471.2808
96244,1432.0544
96245,1412.9407
96246,1426.5369
96247,1499.358
96248,1690.1434
96249,1741.0957
96250,1759.257
96251,1804.4269
96252,1852.2617
96253,1867.6471
96254,1901.6163
